# inteferometer_reflection_shot_noise
# Frequency [Hz], Frequency noise [Hz/rtHz]
1.000000000000000000e+00 2.660381548709740547e-08
1.023340212191641951e+00 2.703785159335448984e-08
1.047225189888434826e+00 2.748503876377057119e-08
1.071667648032863518e+00 2.794567470194044803e-08
1.096680598336868373e+00 2.842006213820539858e-08
1.122277356208507770e+00 2.890850900763216719e-08
1.148471547840289375e+00 2.941132863576717055e-08
1.175277117462945276e+00 2.992883993189566399e-08
1.202708334768511689e+00 3.046136758953159456e-08
1.230779802506665188e+00 3.100924229386302734e-08
1.259506464258357994e+00 3.157280093588171717e-08
1.288903612390892794e+00 3.215238683293148942e-08
1.318986896198670156e+00 3.274834995541951337e-08
1.349772330233942386e+00 3.336104715944733671e-08
1.381276302832009639e+00 3.399084242513196302e-08
1.413515584835395522e+00 3.463810710040474437e-08
1.446507338521646702e+00 3.530322015009317204e-08
1.480269126739509167e+00 3.598656841011072587e-08
1.514818922258345912e+00 3.668854684659976869e-08
1.550175117335770070e+00 3.740955881989419049e-08
1.586356533508590516e+00 3.815001635319004047e-08
1.623382431612278687e+00 3.891034040583385174e-08
1.661272522034292987e+00 3.969096115116118742e-08
1.700046975206717548e+00 4.049231825883857630e-08
1.739726432343801532e+00 4.131486118168424110e-08
1.780332016430113962e+00 4.215904944696323194e-08
1.821885343465166729e+00 4.302535295217346899e-08
1.864408533970486337e+00 4.391425226535801149e-08
1.907924224765265686e+00 4.482623892999828616e-08
1.952455581016861119e+00 4.576181577456019321e-08
1.998026308572550258e+00 4.672149722678299480e-08
2.044660666579116715e+00 4.770580963281572663e-08
2.092383480396977635e+00 4.871529158132213283e-08
2.141220154815729249e+00 4.975049423268896103e-08
2.191196687578149227e+00 5.081198165348573604e-08
2.242339683219845892e+00 5.190033115633683583e-08
2.294676367231936354e+00 5.301613364537842626e-08
2.348234600554276241e+00 5.415999396748337923e-08
2.403042894406968610e+00 5.533253126944790644e-08
2.459130425468044834e+00 5.653437936134268059e-08
2.516527051405391457e+00 5.776618708624003017e-08
2.575263326771200845e+00 5.902861869653760187e-08
2.635370519267394407e+00 6.032235423710491967e-08
2.696880626390693259e+00 6.164808993548906359e-08
2.759826392466180334e+00 6.300653859941924458e-08
2.824241326078435144e+00 6.439843002185880034e-08
2.890159717909509762e+00 6.582451139385804687e-08
2.957616658993253989e+00 6.728554772546693316e-08
3.026648059395691703e+00 6.878232227497237531e-08
3.097290667331408898e+00 7.031563698673001050e-08
3.169582088726115909e+00 7.188631293786504762e-08
3.243560807235811527e+00 7.349519079412206642e-08
3.319266204733188896e+00 7.514313127514812986e-08
3.396738582272207818e+00 7.683101562949864360e-08
3.476019181541978309e+00 7.855974611965936686e-08
3.557150206821385829e+00 8.033024651738384196e-08
3.640174847446140394e+00 8.214346260964889804e-08
3.725137300800211548e+00 8.400036271553694593e-08
3.812082795843889205e+00 8.590193821435714296e-08
3.901057617190992310e+00 8.784920408532430905e-08
3.992109129748051544e+00 8.984319945911746671e-08
4.085285803928562665e+00 9.188498818164658749e-08
4.180637241455757547e+00 9.397565939036097138e-08
4.278214201767616132e+00 9.611632810343766228e-08
4.378068629038168957e+00 9.830813582219439025e-08
4.480253679829490743e+00 1.005522511470778579e-07
4.584823751389095925e+00 1.028498704075828602e-07
4.691834510607797881e+00 1.052022183064650581e-07
4.801342923653452388e+00 1.076105485786163041e-07
4.913407286296362919e+00 1.100761446649781098e-07
5.028087254942478879e+00 1.126003204018748863e-07
5.145443878390927317e+00 1.151844207261579799e-07
5.265539630332757071e+00 1.178298223965554346e-07
5.388438442608223689e+00 1.205379347316330620e-07
5.514205739240300552e+00 1.233102003647786245e-07
5.642908471262539472e+00 1.261480960166296422e-07
5.774615152359821479e+00 1.290531332853729607e-07
5.909395895340971094e+00 1.320268594553536757e-07
6.047322449462647853e+00 1.350708583244393938e-07
6.188468238624386331e+00 1.381867510505954371e-07
6.332908400455115050e+00 1.413761970181346658e-07
6.480719826311969634e+00 1.446408947241177635e-07
6.631981202212672066e+00 1.479825826853875633e-07
6.786773050723296841e+00 1.514030403667311288e-07
6.945177773823695944e+00 1.549040891306780466e-07
7.107279696773416866e+00 1.584875932094470963e-07
7.273165113001457627e+00 1.621554606995719355e-07
7.442922330043759693e+00 1.659096445797431911e-07
7.616641716552892127e+00 1.697521437524182152e-07
7.794415750404948717e+00 1.736850041097605388e-07
7.976339067929276716e+00 1.777103196244874682e-07
8.162508514287228678e+00 1.818302334662085810e-07
8.353023195026777259e+00 1.860469391438631615e-07
8.547984528840409268e+00 1.903626816748661715e-07
8.747496301554416931e+00 1.947797587815940902e-07
8.951664721378302048e+00 1.993005221158542074e-07
9.160598475443707756e+00 2.039273785119919948e-07
9.374408787662995124e+00 2.086627912693135995e-07
9.593209477938243523e+00 2.135092814645069091e-07
9.817117022752192668e+00 2.184694292947681176e-07
1.004625061717340806e+01 2.235458754523518097e-07
1.028073223830865324e+01 2.287413225312816168e-07
1.052068671023622848e+01 2.340585364669744810e-07
1.076624177045493269e+01 2.395003480095491705e-07
1.101752813788386831e+01 2.450696542316074206e-07
1.127467958244946722e+01 2.507694200712943681e-07
1.153783299629660775e+01 2.566026799114630760e-07
1.180712846666189719e+01 2.625725391957889129e-07
1.208270935044776628e+01 2.686821760826962501e-07
1.236472235053714996e+01 2.749348431379810114e-07
1.265331759388942956e+01 2.813338690670379968e-07
1.294864871145904317e+01 2.878826604876117432e-07
1.325087291997953187e+01 2.945847037440247363e-07
1.356015110565633286e+01 3.014435667638472145e-07
1.387664790981308549e+01 3.084629009580047275e-07
1.420053181653682373e+01 3.156464431653344374e-07
1.453197524236896143e+01 3.229980176426339183e-07
1.487115462808953836e+01 3.305215381012573277e-07
1.521825053264386263e+01 3.382210097913584521e-07
1.557344772926134269e+01 3.461005316348838339e-07
1.593693530381774437e+01 3.541642984084586794e-07
1.630890675549332514e+01 3.624166029773363608e-07
1.668956009978024113e+01 3.708618385815952916e-07
1.707909797389427808e+01 3.795045011758161926e-07
1.747772774464680978e+01 3.883491918234792740e-07
1.788566161883461803e+01 3.974006191473687183e-07
1.830311675620611922e+01 4.066636018372895831e-07
1.873031538506437599e+01 4.161430712164387711e-07
1.916748492056814968e+01 4.258440738678022066e-07
1.961485808579430312e+01 4.357717743219832895e-07
2.007267303562569438e+01 4.459314578078966515e-07
2.054117348353064187e+01 4.563285330678008411e-07
2.102060883130158331e+01 4.669685352381769146e-07
2.151123430182166274e+01 4.778571287979878634e-07
2.201331107493031425e+01 4.890001105859084391e-07
2.252710642645980244e+01 5.004034128881225121e-07
2.305289387051708516e+01 5.120731065983603756e-07
2.359095330508635158e+01 5.240154044518522211e-07
2.414157116103018907e+01 5.362366643349383851e-07
2.470504055456825299e+01 5.487433926721073011e-07
2.528166144331499154e+01 5.615422478922756067e-07
2.587174078595922566e+01 5.746400439761668917e-07
2.647559270567066747e+01 5.880437540866944862e-07
2.709353865732051503e+01 6.017605142842935012e-07
2.772590759860482379e+01 6.157976273291933891e-07
2.837303616516213012e+01 6.301625665726773512e-07
2.903526884977813793e+01 6.448629799394097504e-07
2.971295818577334202e+01 6.599066940029804536e-07
3.040646493467066946e+01 6.753017181568435063e-07
3.111615827824361347e+01 6.910562488829081183e-07
3.184241601504653119e+01 7.071786741200594204e-07
3.258562476153224452e+01 7.236775777349763424e-07
3.334618015786364253e+01 7.405617440976426581e-07
3.412448707852889385e+01 7.578401627640157450e-07
3.492095984787271590e+01 7.755220332683883334e-07
3.573602246065786403e+01 7.936167700280058388e-07
3.657010880777491479e+01 8.121340073626117711e-07
3.742366290721980704e+01 8.310836046316032448e-07
3.829713914046281076e+01 8.504756514915994231e-07
3.919100249433404315e+01 8.703204732772382205e-07
4.010572880855495725e+01 8.906286365081344335e-07
4.104180502904709016e+01 9.114109545249685739e-07
4.199972946715303834e+01 9.326784932577565699e-07
4.298001206490796022e+01 9.544425771294455797e-07
4.398317466650223651e+01 9.767147950980143039e-07
4.500975129608046643e+01 9.995070068403881060e-07
4.606028844202400307e+01 1.022831349081500959e-06
4.713534534786909802e+01 1.046700242071979484e-06
4.823549431001467269e+01 1.071126396217949240e-06
4.936132098237916921e+01 1.096122818866603381e-06
5.051342468816763898e+01 1.121702821251216375e-06
5.169241873891598260e+01 1.147880025599420776e-06
5.289893076098150715e+01 1.174668372408620546e-06
5.413360302965378423e+01 1.202082127892531707e-06
5.539709281106403438e+01 1.230135891602946586e-06
5.669007271207433973e+01 1.258844604230891374e-06
5.801323103833378525e+01 1.288223555591492645e-06
5.936727216069122903e+01 1.318288392796927320e-06
6.075291689016074059e+01 1.349055128621996404e-06
6.217090286163826818e+01 1.380540150066919746e-06
6.362198492657488913e+01 1.412760227122124663e-06
6.510693555481458361e+01 1.445732521739859247e-06
6.662654524581149929e+01 1.479474597017654548e-06
6.818162294944478674e+01 1.514004426598719514e-06
6.977299649665533821e+01 1.549340404294533643e-06
7.140151304013399169e+01 1.585501353935030817e-06
7.306803950529499048e+01 1.622506539451860770e-06
7.477346305177587737e+01 1.660375675200452018e-06
7.651869154570822218e+01 1.699128936526633312e-06
7.830465404301186538e+01 1.738786970583831582e-06
8.013230128396887153e+01 1.779370907406943519e-06
8.200260619934130091e+01 1.820902371249189713e-06
8.391656442830156948e+01 1.863403492188397688e-06
8.587519484845171291e+01 1.906896918009361778e-06
8.787954011821319966e+01 1.951405826369077059e-06
8.993066723187618550e+01 1.996953937251857821e-06
9.202966808760415063e+01 2.043565525721525105e-06
9.417766006869518947e+01 2.091265434978049851e-06
9.637578663841088655e+01 2.140079089726259933e-06
9.862521794868779068e+01 2.190032509864391484e-06
1.009271514630570863e+02 2.241152324500536849e-06
1.032828125941028503e+02 2.293465786305222733e-06
1.056934553557988323e+02 2.347000786208620646e-06
1.081603630310709434e+02 2.401785868451111968e-06
1.106848488549411940e+02 2.457850245996211587e-06
1.132682567136153722e+02 2.515223816315076846e-06
1.159119618598885779e+02 2.573937177552140659e-06
1.186173716452478004e+02 2.634021645081666850e-06
1.213859262690627645e+02 2.695509268465352721e-06
1.242190995452617415e+02 2.758432848821323664e-06
1.271183996869028903e+02 2.822825956615321606e-06
1.300853701090570667e+02 2.888722949885079231e-06
1.331215902504307564e+02 2.956158992909330174e-06
1.362286764141646813e+02 3.025170075333152706e-06
1.394082826282577230e+02 3.095793031761837413e-06
1.426621015260736840e+02 3.168065561835787430e-06
1.459918652473978682e+02 3.242026250799329510e-06
1.493993463605257830e+02 3.317714590576854638e-06
1.528863588058729590e+02 3.395171001370047796e-06
1.564547588616095766e+02 3.474436853790473905e-06
1.601064461318317740e+02 3.555554491542229495e-06
1.638433645577984805e+02 3.638567254669968116e-06
1.676675034527699211e+02 3.723519503388005600e-06
1.715808985610004811e+02 3.810456642506902881e-06
1.755856331414468912e+02 3.899425146474351836e-06
1.796838390767719318e+02 3.990472585047957448e-06
1.838776980082326986e+02 4.083647649618066082e-06
1.881694424970555701e+02 4.179000180199363124e-06
1.925613572129198587e+02 4.276581193110915282e-06
1.970557801501798281e+02 4.376442909364824551e-06
2.016551038724746547e+02 4.478638783784554487e-06
2.063617767863858603e+02 4.583223534874775437e-06
2.111783044448244482e+02 4.690253175465482599e-06
2.161072508808376540e+02 4.799785044153953045e-06
2.211512399725488649e+02 4.911877837569167498e-06
2.263129568399529603e+02 5.026591643484167995e-06
2.315951492743152187e+02 5.143987974803116832e-06
2.370006292009327922e+02 5.264129804450706482e-06
2.425322741760352869e+02 5.387081601192824634e-06
2.481930289186255152e+02 5.512909366418739704e-06
2.539859068780723987e+02 5.641680671916189373e-06
2.599139918382932706e+02 5.773464698672286159e-06
2.659804395593758386e+02 5.908332276734545719e-06
2.721884794575179853e+02 6.046355926167971541e-06
2.785414163241766232e+02 6.187609899145671318e-06
2.850426320853434845e+02 6.332170223212372545e-06
2.916955876018795948e+02 6.480114745761819344e-06
2.985038245118729492e+02 6.631523179771289849e-06
3.054709671159968138e+02 6.786477150838325942e-06
3.126007243068703474e+02 6.945060245566942341e-06
3.198968915434537621e+02 7.107358061353226435e-06
3.273633528715244552e+02 7.273458257622298582e-06
3.350040829913132825e+02 7.443450608571656130e-06
3.428231493733970865e+02 7.617427057478308821e-06
3.508247144239792306e+02 7.795481772630558957e-06
3.590130377007068319e+02 7.977711204948042750e-06
3.673924781802074335e+02 8.164214147357326225e-06
3.759674965785467293e+02 8.355091795993655032e-06
3.847426577258501652e+02 8.550447813303670654e-06
3.937226329963479543e+02 8.750388393127666328e-06
4.029122027951347604e+02 8.955022327844307212e-06
4.123162591029752093e+02 9.164461077665753746e-06
4.219398080805024165e+02 9.378818842175565629e-06
4.317879727332021389e+02 9.598212634207464359e-06
4.418659956385941427e+02 9.822762356168380439e-06
4.521792417370701855e+02 1.005259087891544891e-05
4.627332011878688718e+02 1.028782412330297642e-05
4.735334922917116387e+02 1.052859114452220295e-05
4.845858644816495939e+02 1.077502421936407259e-05
4.958962013837211771e+02 1.102725893654326616e-05
5.074705239490465942e+02 1.128543429022990683e-05
5.193149936590211837e+02 1.154969277694443219e-05
5.314359158053241572e+02 1.182018049598087517e-05
5.438397428464795667e+02 1.209704725353398795e-05
5.565330778427645555e+02 1.238044667071687805e-05
5.695226779712825191e+02 1.267053629566724863e-05
5.828154581230845679e+02 1.296747771995369822e-05
5.964184945842459911e+02 1.327143669950667725e-05
6.103390288028621171e+02 1.358258328031333750e-05
6.245844712439618434e+02 1.390109192913149893e-05
6.391624053343998639e+02 1.422714166949446223e-05
6.540805914998252319e+02 1.456091622329692982e-05
6.693469712958660693e+02 1.490260415827100088e-05
6.849696716357447031e+02 1.525239904168298816e-05
7.009570091165618351e+02 1.561049960060364577e-05
7.173174944465612271e+02 1.597710988912876137e-05
7.340598369757211685e+02 1.635243946295297191e-05
7.511929493320968731e+02 1.673670356172794423e-05
7.687259521663728492e+02 1.713012329966575903e-05
7.866681790071581872e+02 1.753292586488124048e-05
8.050291812295980662e+02 1.794534472800149034e-05
8.238187331399601590e+02 1.836761986060918668e-05
8.430468371788966806e+02 1.879999796412644447e-05
8.627237292461450124e+02 1.924273270979010172e-05
8.828598841495149827e+02 1.969608499041682677e-05
9.034660211810524970e+02 2.016032318470759962e-05
9.245531098233570901e+02 2.063572343489649940e-05
9.461323755890769007e+02 2.112256993860827978e-05
9.682153059967085937e+02 2.162115525585482203e-05
9.908136566858665901e+02 2.213178063216948330e-05
1.013939457675291692e+03 2.265475633895541095e-05
1.037605019766911710e+03 2.319040203220502569e-05
1.061822941099383570e+03 2.373904713083815999e-05
1.086606113854596742e+03 2.430103121600214774e-05
1.111967731120699000e+03 2.487670445278256594e-05
1.137921293915315118e+03 2.546642803588723141e-05
1.164480618372685512e+03 2.607057466099015598e-05
1.191659843098558667e+03 2.668952902355655057e-05
1.219473436696738190e+03 2.732368834711674231e-05
1.247936205471311496e+03 2.797346294311661257e-05
1.277063301308643304e+03 2.863927680464596140e-05
1.306870229743346272e+03 2.932156823653619658e-05
1.337372858212496340e+03 3.002079052452480523e-05
1.368587424502517706e+03 3.073741264641167682e-05
1.400530545393219654e+03 3.147192002837815911e-05
1.433219225503573853e+03 3.222481534990974205e-05
1.466670866343968555e+03 3.299661940106093271e-05
1.500903275579735009e+03 3.378787199612234306e-05
1.535934676510896907e+03 3.459913294810808748e-05
1.571783717773162834e+03 3.543098310886894846e-05
1.608469483265355166e+03 3.628402548006816954e-05
1.646011502308549780e+03 3.715888640072553020e-05
1.684429760042315138e+03 3.805621681755479163e-05
1.723744708063619782e+03 3.897669364489199357e-05
1.763977275314043482e+03 3.992102122164024858e-05
1.805148879221108245e+03 4.088993287335431024e-05
1.847281437099634104e+03 4.188419258835520347e-05
1.890397377819221447e+03 4.290459681761763248e-05
1.934519653744044263e+03 4.395197640911366397e-05
1.979671752951332564e+03 4.502719868834145604e-05
2.025877711735017101e+03 4.613116969792765547e-05
2.073162127401229100e+03 4.726483661048133813e-05
2.121550171362450328e+03 4.842919033031256603e-05
2.171067602537264975e+03 4.962526830122579354e-05
2.221740781062884707e+03 5.085415753938499119e-05
2.273596682327715371e+03 5.211699791223754459e-05
2.326662911331457963e+03 5.341498568671568709e-05
2.380967717380358408e+03 5.474937737243070878e-05
2.436540009125465986e+03 5.612149388837869434e-05
2.493409369951878034e+03 5.753272508482457017e-05
2.551606073727183684e+03 5.898453465557415706e-05
2.611161100917459407e+03 6.047846547983662060e-05
2.672106155079432483e+03 6.201614543738629304e-05
2.734473679737579914e+03 6.359929374582834645e-05
2.798296875655115855e+03 6.522972787453962099e-05
2.863609718508115748e+03 6.690937109640373432e-05
2.930446976972141329e+03 6.864026074589214268e-05
2.998844231231027607e+03 7.042455726050837002e-05
3.068837891917642082e+03 7.207608350296047925e-05
3.140465219496752070e+03 7.339701607321817093e-05
3.213764344100275594e+03 7.613844110291108260e-05
3.288774285825510105e+03 7.729359966238920950e-05
3.365534975507094259e+03 7.949195467682727172e-05
3.444087275973819942e+03 8.141129434582365849e-05
3.524473003801584127e+03 8.349885943775711911e-05
3.606734951574027946e+03 8.549807951721200201e-05
3.690916910662778264e+03 8.778281617953219711e-05
3.777063694539364406e+03 9.020716418335207967e-05
3.865221162631261905e+03 9.258104692948913059e-05
3.955436244734701631e+03 9.519885536190052331e-05
4.047756965997322368e+03 9.698074196540623886e-05
4.142232472483893616e+03 1.001562033263377895e-04
4.238913057338778344e+03 1.028676138727064004e-04
4.337850187558989091e+03 1.048511003592208688e-04
4.439096531392166071e+03 1.082845594733950297e-04
4.542705986374043277e+03 1.105713802223041038e-04
4.648733708020256927e+03 1.133940341149753089e-04
4.757236139187889421e+03 1.168360065449793793e-04
4.868271040122278464e+03 1.198305754226957351e-04
4.981897519205160279e+03 1.238542628551367287e-04
5.098176064420425064e+03 1.273161630580285988e-04
5.217168575554349445e+03 1.308341633299987242e-04
5.338938397147349860e+03 1.339465568647163073e-04
5.463550352214875602e+03 1.376714400449982059e-04
5.591070776755293082e+03 1.420116565224622011e-04
5.721567555063245891e+03 1.456725858017811175e-04
5.855110155867238063e+03 1.496212668658299810e-04
5.991769669310619065e+03 1.545908117124296616e-04
6.131618844795774748e+03 1.588175991819083344e-04
6.274732129711574999e+03 1.632180075336231613e-04
6.421185709064758157e+03 1.672252869331821963e-04
6.571057546036270651e+03 1.717331155763769505e-04
6.724427423484249630e+03 1.769422275668936883e-04
6.881376986415662941e+03 1.826262811590416825e-04
7.041989785449288320e+03 1.884448971756876241e-04
7.206351321293052024e+03 1.931067881784622386e-04
7.374549090259546574e+03 1.999392632584527142e-04
7.546672630843886509e+03 2.050120795162405920e-04
7.722813571388642231e+03 2.124033310486917749e-04
7.903065678861347806e+03 2.192671135477270881e-04
8.087524908770448747e+03 2.250318729706142745e-04
8.276289456246344344e+03 2.323947170069766844e-04
8.469459808314584734e+03 2.398699656372724307e-04
8.667138797389232423e+03 2.465169343462800429e-04
8.869431656014703549e+03 2.531658422143406059e-04
9.076446072885357353e+03 2.614941107850208332e-04
9.288292250172498825e+03 2.695544424803264960e-04
9.505082962189502723e+03 2.779772225572711675e-04
